x,y,z,yaw,velocity,change_flag,steering_flag,accel_flag,stop_flag,event_flag
268.3487497573951,-895.1747358394787,53.474956568330526,-138.01581295971317,2.9447925352991335,0,2,0,0,0
267.5977769574383,-895.8606532095,53.478856859728694,-138.02856526357655,3.4189625827970187,0,2,0,0,0
266.85155946563464,-896.5494458135217,53.49320861790329,-138.02059160018416,3.8140359389431233,0,2,0,0,0
266.08204810350435,-897.2473754994571,53.52112541999668,-137.914194593955,4.186024418494946,0,2,0,0,0
265.31431538477773,-897.9525127978995,53.51728488970548,-137.81859020317074,4.506237533160799,0,2,0,0,0
264.56539437075844,-898.6437610508874,53.521626859903336,-137.77599792753242,4.757567743914495,0,2,0,0,0
263.77616325899726,-899.371786638163,53.532531360164285,-137.78381708008706,4.991270695800546,0,2,0,0,0
263.0341958421632,-900.0583868203685,53.53866720851511,-138.2966482315856,5.101586015787433,0,2,0,0,0
262.26762092427816,-900.7378247594461,53.543564482592046,-139.2652287038988,5.129842847673665,0,2,0,0,0
261.49202972865896,-901.4100046474487,53.5556879369542,-141.04508303640185,5.124004576347373,0,2,0,0,0
260.69703710085014,-902.0516378488392,53.563696754164994,-143.04374843959067,5.076225236823967,0,2,0,0,0
259.8834881209186,-902.6495707361028,53.56575583200902,-145.07943231666795,5.013789870564599,0,2,0,0,0
258.9784520827816,-903.2723045852035,53.558848194777966,-147.52311294759227,4.955894224693326,0,2,0,0,0
258.0643367044977,-903.8503167936578,53.55659335292876,-150.2083832748908,4.867383126655011,0,2,0,0,0
257.1332210501423,-904.3649480128661,53.56037138123065,-153.06493035436162,4.7912868299839175,0,2,0,0,0
256.19123096374096,-904.8280599098653,53.549075573682785,-156.68947417720747,4.718168611123374,0,2,0,0,0
255.23437499650754,-905.2191646751016,53.54270755313337,-160.56893505813102,4.651327608759238,0,2,0,0,0
254.26685709645972,-905.5418057218194,53.53849570918828,-164.60576583175387,4.589328575211182,0,2,0,0,0
253.2917903107591,-905.7865398582071,53.52078949473798,-168.71327000609452,4.528394807268683,0,2,0,0,0
252.2234147959971,-905.976845966652,53.52023015078157,-173.4421171734681,4.466043945735107,0,2,0,0,0
251.16035894595552,-906.0743872374296,53.5189577806741,-178.29276845890456,4.3794828461630235,0,2,0,0,0
250.11245923041133,-906.0764733841643,53.50500896759331,176.5451029888952,4.3045761876906,0,2,0,0,0
249.08689759508707,-905.9889965038747,53.49799593258649,171.04481725054805,4.2286771591484635,0,2,0,0,0
248.09307548310608,-905.8058717045933,53.5016296133399,165.47613685240623,4.140589155944327,0,2,0,0,0
247.06789503106847,-905.5074574053288,53.50411122944206,159.01791087824796,4.0285392848540456,0,2,0,0,0
246.10948331153486,-905.098999385722,53.49946079496294,152.41152320347956,3.9454935026978206,0,2,0,0,0
245.21833209926262,-904.5970294093713,53.50096405856311,146.02912926512937,3.888354279964757,0,2,0,0,0
244.39771159837255,-904.0106099043041,53.50813798233867,140.25805699362456,3.835673513992205,0,2,0,0,0
243.65198719030013,-903.3437693361193,53.487959241494536,135.3988633139129,3.824057799618618,0,2,0,0,0
242.94485147594241,-902.6359207369387,53.506117548793554,130.82013121636112,3.844180417899239,0,2,0,0,0
242.30264713749057,-901.8625457175076,53.50363314524293,127.1192266227094,3.8547710613772823,0,2,0,0,0
241.7062633795431,-901.051459656097,53.50517762731761,123.88167968746755,3.868917322769948,0,2,0,0,0
241.15157993038883,-900.2069817250594,53.513376167975366,121.34979497426042,3.881894012454205,0,2,0,0,0
240.63143980997847,-899.336053376086,53.511920667253435,119.40732212249563,3.896706433088286,0,2,0,0,0
240.13318444805918,-898.4484442416579,53.51382915023714,117.95016499151515,3.9075873159098795,0,2,0,0,0
239.65372780617326,-897.5509509984404,53.52070918306708,117.05739250666075,3.941899840685103,0,2,0,0,0
239.1788252463448,-896.6443656189367,53.52869803737849,116.6246132540382,3.9305426163604613,0,2,0,0,0
238.7254798662034,-895.7280264217407,53.534012826159596,116.62842651959582,3.938787126699791,0,2,0,0,0
238.24549815309,-894.8233526907861,53.52415659930557,116.53813995875599,3.944509133804002,0,2,0,0,0
237.78650134854252,-893.9108121013269,53.53173417504877,117.1505537989579,3.913959738879873,0,2,0,0,0
237.3092423674534,-893.0107787931338,53.55409707967192,118.04803193871467,3.9221709237972555,0,2,0,0,0
236.81431289203465,-892.1201621163636,53.554602480493486,119.65386399300502,3.9163641612694082,0,2,0,0,0
236.29582441132516,-891.2433263314888,53.580821704119444,121.58588489563711,3.917317440311815,0,2,0,0,0
235.7407578752609,-890.3871900513768,53.58509670197964,123.4521392816808,3.9297080719573056,0,2,0,0,0
235.16673500963952,-889.5414684247226,53.59965938143432,125.14587655312063,3.9356365824881254,0,3,0,0,0
234.56232474581338,-888.7154695726931,53.60532271955162,126.51799715734485,3.9327041292691907,0,3,0,0,0
233.9469046292943,-887.9074410907924,53.614435349591076,127.77047779167316,3.8827176117886895,0,3,0,0,0
233.276541535859,-887.0709230219945,53.62099038250744,128.84725983715782,3.7986344796508846,0,3,0,0,0
232.60812272218755,-886.2641885271296,53.62650710064918,129.72233452629212,3.691500567092372,0,3,0,0,0
231.95249959715875,-885.4996406845748,53.6339721577242,130.43056776233846,3.503431293335647,0,3,0,0,0
231.2916680846247,-884.7483283411711,53.641768634319305,131.15323239711134,3.17311220306117,0,3,0,0,0
230.60173805005616,-883.9763682512566,53.650411321781576,131.77202909873958,2.584549202628773,0,3,0,0,0
229.9144380002981,-883.2310764668509,53.64886988326907,131.52238661549768,2.09614976876149,0,3,0,0,0
229.21947831549915,-882.4837370580062,53.65051595121622,131.3991240469489,1.38296233575083,0,3,0,0,0
228.5577945491532,-881.7227656878531,53.62823019456118,131.3944333158468,0.9908377316273541,0,1,0,0,0
227.88573667715536,-880.9690208397806,53.63615348562598,131.76635778566614,2.052910226684045,0,1,0,0,0
227.20322679163655,-880.2158754104748,53.639058351516724,132.06761810917536,2.778904279254432,0,1,0,0,0
226.490806155256,-879.4445014111698,53.63869653455913,132.40468725834717,3.382596549143996,0,1,0,0,0
225.80212917504832,-878.7025377163664,53.6448661359027,132.96740825095645,3.8243761381011883,0,1,0,0,0
225.0810619792901,-877.9471787307411,53.65281240455806,134.25314859669828,4.1960622474272,0,1,0,0,0
224.33277343714144,-877.211955322884,53.65016666986048,136.15796118832407,4.535661503415052,0,1,0,0,0
223.57569622178562,-876.5135873025283,53.655899721197784,138.419182449729,4.829465398531995,0,1,0,0,0
222.74358736007707,-875.8049876419827,53.665427977219224,140.5970426659693,5.111434628823037,0,1,0,0,0
221.92196153552504,-875.1553630996495,53.66459962166846,142.29873628573299,5.3577485008349885,0,1,0,0,0
221.04684811382322,-874.4994538435712,53.667566023766994,143.59714692595898,5.5747889578889795,0,1,0,0,0
220.2186959363753,-873.9009327599779,53.672126428224146,144.411246804713,5.771156583123006,0,1,0,0,0
219.3520647835103,-873.2988292071968,53.671711929142475,144.7964567608254,5.952110167811358,0,1,0,0,0
218.463344169606,-872.6824908899143,53.669283129274845,144.8639327110532,6.045869621573492,0,1,0,0,0
217.5712791007827,-872.0590160312131,53.6743067773059,144.49519553566228,6.027330047208711,0,1,0,0,0
216.6857684715069,-871.4382337341085,53.69441040698439,143.53517153959754,5.976006538014947,0,1,0,0,0
215.82442567439284,-870.804761538282,53.703526015393436,142.2639836298514,5.897666234064784,0,1,0,0,0
214.99331191956298,-870.1584938634187,53.70716761983931,140.7411739911145,5.793771402855035,0,1,0,0,0
214.1972540015704,-869.5019131042063,53.71528273075819,139.18735472036596,5.628180441143528,0,1,0,0,0
213.36387207283406,-868.7754185348749,53.724641017615795,137.69558148791162,5.38466985941055,0,1,0,0,0
212.59027461247751,-868.0631054108962,53.72655097581446,136.45374247325447,5.085441802083498,0,1,0,0,0
211.80982880218653,-867.316369690001,53.73619155026972,135.3603576662328,4.692149167280276,0,1,0,0,0
211.04903836350422,-866.563467909582,53.7453991426155,134.577925712246,4.202170827505123,0,1,0,0,0
210.32761683373246,-865.8357516061515,53.749757742509246,134.03822892922304,3.6738674407086833,0,2,0,0,0
209.61946224875282,-865.1104341400787,53.76067947782576,133.62956074687813,3.075097930345967,0,2,0,0,0
208.9093888279167,-864.3745362386107,53.770989243872464,133.2888571793877,2.306086729609568,0,2,0,0,0
208.19870951015037,-863.633814019151,53.772803467698395,132.9500611191064,1.720128560811777,0,2,0,0,0
207.49961517821066,-862.8950499948114,53.78138137701899,132.6342791189354,1.4339113345863892,0,2,0,0,0
206.80701347521972,-862.1452273651958,53.78441992774606,132.34448669628935,1.7127445710688425,0,2,0,0,0
206.11422639910597,-861.3884419975802,53.79196195770055,132.1802543214685,2.425101813546024,0,2,0,0,0
205.4293862885679,-860.6370334420353,53.80874385405332,132.10150906343478,2.907525083860918,0,2,0,0,0
204.71839730988722,-859.855269420892,53.81467228196561,132.02607486441246,3.3140556123086853,0,2,0,0,0
204.0148156976211,-859.0794618669897,53.82563987188041,131.9806750816327,3.678248843071835,0,2,0,0,0
203.29255152744008,-858.2822476997972,53.83632675744593,131.9512744635066,4.013847209768649,0,2,0,0,0
202.5660412965226,-857.479894942604,53.84679153189063,131.94953473550743,4.321282116106348,0,2,0,0,0
201.84703979024198,-856.6920769494027,53.85732537321746,131.94973780209094,4.594403467044438,0,2,0,0,0
201.0836058552959,-855.8568665198982,53.865472816862166,131.96301831865713,4.841729429880991,0,2,0,0,0
200.3467805311666,-855.0498951207846,53.87382741365582,131.96858321273157,5.101121405529444,0,2,0,0,0
199.64609024178935,-854.2842395128682,53.880710440687835,131.97443976574607,5.3042435856993055,0,2,0,0,0
198.9188075651182,-853.4875227501616,53.888113209977746,131.9819170602676,5.506051275763986,0,2,0,0,0
198.2410515002557,-852.7446654411033,53.89488926064223,131.99585449494867,5.681906963957369,0,2,0,0,0
197.54093618952902,-851.9789448603988,53.90014628786594,131.95060847768258,5.8560267548001335,0,2,0,0,0
196.82471354899462,-851.1913190735504,53.912094017490745,131.89431349971508,5.98256528084738,0,2,0,0,0
196.09659494872903,-850.3906045211479,53.92387280147523,131.76111635792805,6.0478845557495955,0,2,0,0,0
195.36701009230455,-849.5839423676953,53.931964779272676,131.59128780156013,6.047854636458139,0,2,0,0,0
194.6417650434305,-848.7765319207683,53.942315640859306,131.37233141306842,6.031786510313297,0,2,0,0,0
193.91922655230155,-847.9663440501317,53.95244984515011,131.07436207980174,6.0680301320461085,0,2,0,0,0
193.19153797155013,-847.1415087152272,53.959063025191426,130.67089489567675,6.182329749974467,0,2,0,0,0
192.453986638051,-846.2931392285973,53.970090843737125,130.21694088209836,6.340074760053544,0,2,0,0,0
191.7852384300786,-845.5107479114085,53.98025300446898,129.77897657103392,6.551739040774317,0,2,0,0,0
191.10446568083717,-844.7012732010335,53.99263085052371,129.22242849891893,6.671389440751752,0,2,0,0,0
190.42447854421334,-843.879003206268,54.012244218960404,128.44084713732187,6.6703539132489365,0,2,0,0,0
189.7586819495191,-843.0490003833547,54.02342223934829,127.44147267291004,6.639499609362205,0,2,0,0,0
189.1132805533125,-842.2111315121874,54.02507891692221,126.1227033640127,6.583478001329997,0,2,0,0,0
188.49377102515427,-841.3662237944081,54.031308961100876,124.54365083801481,6.520111500610861,0,2,0,0,0
187.9040660460014,-840.5133588928729,54.04048311896622,122.69059542053654,6.459007290771612,0,2,0,0,0
187.3507548320922,-839.6504876846448,54.045226752758026,120.62139854193177,6.375479181178135,0,2,0,0,0
186.83874871447915,-838.775787236169,54.051220810972154,118.40422530235142,6.298538675246056,0,2,0,0,0
186.36499202088453,-837.8925629341975,54.066089414060116,115.99168519988072,6.224774367033242,0,2,0,0,0
185.88410824537277,-836.8877336429432,54.07435585744679,113.21967905280506,6.149241660110381,0,2,0,0,0
185.46050304028904,-835.872126897797,54.071901437826455,110.4245878017387,6.069807699106778,0,2,0,0,0
185.0908887697733,-834.8510340200737,54.07717436738312,107.54373157540108,5.986096000579102,0,2,0,0,0
184.77817291521933,-833.8269411865622,54.091246793977916,104.68254917021056,5.907101660754519,0,2,0,0,0
184.51946040749317,-832.8011989798397,54.10488430969417,101.78007718642249,5.816659479697886,0,2,0,0,0
184.3171112415148,-831.7774447500706,54.123729025013745,98.86319973305267,5.741867873397705,0,2,0,0,0
184.16704459645553,-830.7548188352957,54.14687027782202,95.8491156627144,5.704031097149578,0,2,0,0,0
184.06972085597226,-829.7312810141593,54.168337947689,92.76781633967686,5.684204735150335,0,2,0,0,0
184.03154539241223,-828.7065961109474,54.1920176865533,89.7130813262409,5.675576134724242,0,2,0,0,0
184.04635060025612,-827.6814558636397,54.216352940537035,86.59517836733224,5.676353391441462,0,2,0,0,0
184.11759719758993,-826.6552783539519,54.240101678296924,83.48441699259507,5.687253624463847,0,2,0,0,0
184.24537563428748,-825.631570267491,54.26457860134542,80.36553770408077,5.716449458904858,0,3,0,0,0
184.43007150833728,-824.6100472752005,54.28415546473116,77.28530826799636,5.759521457829746,0,3,0,0,0
184.67036000447115,-823.5926102502272,54.30221312306821,74.26877863871653,5.802571932065626,0,3,0,0,0
184.96555340639316,-822.5813689148054,54.32293663267046,71.37519998114972,5.852551188175585,0,3,0,0,0
185.31259641930228,-821.5778324613348,54.3420137334615,68.59305826749784,5.903469627253773,0,3,0,0,0
185.71288369118702,-820.5819147406146,54.35808436293155,65.95857228795533,5.981322125952832,0,3,0,0,0
186.1631660478888,-819.592302727513,54.37480700388551,63.49940132167963,6.057205590034804,0,3,0,0,0
186.6610877472558,-818.6047343201935,54.396822393871844,61.15860516086316,6.198657985244414,0,1,0,0,0
187.15011515747756,-817.7278641518205,54.413049147464335,59.26577232646909,6.3142792556298435,0,1,0,0,0
187.6754026209819,-816.8528928393498,54.43716230709106,57.46573055744419,6.41135019502399,0,1,0,0,0
188.23380840476602,-815.9799584308639,54.462172522209585,55.85210697106354,6.520355361435605,0,1,0,0,0
188.82866000762442,-815.1093197092414,54.4762577759102,54.4007456265328,6.642193312528746,0,1,0,0,0
189.45971818518592,-814.2414147984236,54.48820029757917,53.10248501169914,6.752707570557928,0,1,0,0,0
190.11576575925574,-813.3689752798527,54.518418471328914,51.83204781567764,6.87904578270029,0,1,0,0,0
190.80371150019346,-812.4931833818555,54.549857216887176,50.656872005703406,7.02458666092631,0,1,0,0,0
191.52815643663052,-811.6157467588782,54.57383593637496,49.673055597573324,7.178497007284086,0,1,0,0,0
192.18473714473657,-810.8427781816572,54.59936282597482,48.851617636042604,7.304856927147076,0,1,0,0,0
192.86152807611506,-810.0642513297498,54.62860085722059,48.0738889819147,7.434765973921696,0,1,0,0,0
193.56127879401902,-809.2816386921331,54.65429337695241,47.42140344728976,7.563218208583812,0,1,0,0,0
194.28248361783335,-808.4939923183993,54.676812439225614,46.891431480669446,7.694291924366804,0,1,0,0,0
195.0220671640709,-807.6989047024399,54.69993123691529,46.45978462802825,7.821155412592474,0,1,0,0,0
195.77909674466355,-806.8957988424227,54.725650456734,46.12541114123366,7.9510528445695074,0,1,0,0,0
196.553564011876,-806.0834528766572,54.75041216798127,45.92880414081439,8.08775815512061,0,1,0,0,0
197.34326934802812,-805.2603721171618,54.77253576461226,45.89958142639184,8.21644386968202,0,1,0,0,0
198.1461728195427,-804.4246338540688,54.79252993315458,46.079124841796265,8.34911730743783,0,1,0,0,0
198.84063809295185,-803.6952861165628,54.8110645506531,46.33304264799559,8.44835745102177,0,1,0,0,0
199.53964831744088,-802.9541536523029,54.8339041993022,46.72438698097586,8.543292601988373,0,1,0,0,0
200.24162449885625,-802.2010221863165,54.86004494968802,47.262249394067574,8.628675196725421,0,1,0,0,0
200.94353161676554,-801.4335570158437,54.88711630553007,47.91385902751025,8.716095152957411,0,1,0,0,0
201.6422460860922,-800.6497767660767,54.91441155318171,48.636756483240354,8.795557112022111,0,1,0,0,0
202.33709165407345,-799.8493317626417,54.941872676834464,49.414606742171884,8.878870142942203,0,1,0,0,0
203.02588824508712,-799.0318761160597,54.96965296473354,50.23408360608155,8.956307860598818,0,1,0,0,0
203.70651789795374,-798.1983998902142,55.000088571570814,51.044616260312935,9.024565201282869,0,1,0,0,0
204.38020825240528,-797.3491278691217,55.034069860354066,51.838417782380766,9.084311090562338,0,1,0,0,0
205.04689487832366,-796.4839152423665,55.06679615098983,52.603421246616605,9.154963246282861,0,1,0,0,0
205.70669837924652,-795.6034485548735,55.09758361428976,53.31747075376906,9.22011102678426,0,1,0,0,0
206.35971295746276,-794.7078164666891,55.12419127393514,53.98130981010699,9.288378727814365,0,1,0,0,0
207.00691011402523,-793.7987475693226,55.14901373255998,54.64148434474134,9.344684112943927,0,1,0,0,0
207.7531151906005,-792.7221932904795,55.18248024303466,55.369825757331625,9.402028453850802,0,1,0,0,0
208.3857471458614,-791.7860643742606,55.21261006221175,55.96831248718782,9.462203061279142,0,1,0,0,0
209.01167944812914,-790.8374018315226,55.24105316027999,56.50734456301118,9.5175414414003,0,1,0,0,0
209.63326641492313,-789.8776636039838,55.267539949156344,57.024533299495786,9.576979658361859,0,1,0,0,0
210.25044406723464,-788.9070490924641,55.29463329631835,57.52150990151624,9.629319589769432,0,1,0,0,0
210.86286337609636,-787.9253329997882,55.320287078619,57.97732811577904,9.68687827815117,0,1,0,0,0
211.47099221049575,-786.9328812938184,55.34427124354988,58.40420433011209,9.74665966324288,0,1,0,0,0
212.075850117777,-785.9296587668359,55.366849729791284,58.81942927567091,9.808859623303244,0,1,0,0,0
212.67737453937298,-784.915021664463,55.389574968256056,59.22029426577043,9.878775734389263,0,1,0,0,0
213.2762024573749,-783.8888982543722,55.412483263760805,59.63230161587911,9.950908932719901,0,1,0,0,0
213.87118641816778,-782.8512488268316,55.43732972070575,60.03191709401705,10.02290820522893,0,1,0,0,0
214.36468942416832,-781.977302650921,55.45816008280963,60.36276223564373,10.086808371090921,0,1,0,0,0
214.85599284840282,-781.0947557436302,55.4788913866505,60.68287863474343,10.150892842770109,0,1,0,0,0
215.34512106864713,-780.2036335626617,55.499216173775494,60.976495397283536,10.20989449025798,0,1,0,0,0
215.8326048544841,-779.3042442202568,55.519331065006554,61.22076032181772,10.277738343985547,0,1,0,0,0
216.3189389256877,-778.3969426658005,55.53991132695228,61.418768947453486,10.342991038628295,0,1,0,0,0
216.80554608430248,-777.4829614721239,55.56175531912595,61.604580499229726,10.402370564302567,0,1,0,0,0
217.29182823718293,-776.5617670379579,55.58351434208453,61.76754590534152,10.46096920714559,0,1,0,0,0
217.77887508959975,-775.6340659828857,55.60473626293242,61.95432873440864,10.523650535030953,0,1,0,0,0
218.26518327830127,-774.699407203123,55.62713019736111,62.130144147810746,10.578547637977849,0,1,0,0,0
218.7502686457592,-773.7590054813772,55.651359440758824,62.31524125044455,10.635049383770266,0,1,0,0,0
219.23503359244205,-772.8124513681978,55.675861599855125,62.54561874827469,10.678689552203895,0,1,0,0,0
219.71834015479544,-771.8594159632921,55.69857866689563,62.78682679541159,10.733158494200385,0,1,0,0,0
220.19902062037727,-770.8993437411264,55.71821987628937,63.051641219999446,10.782721778366986,0,1,0,0,0
220.6778155437205,-769.9334870642051,55.735474390909076,63.36671306627307,10.823361114547204,0,1,0,0,0
221.1532148605911,-768.961561168544,55.75200491491705,63.726584774094505,10.855075520949233,0,1,0,0,0
221.62434353563003,-767.9841194655746,55.76948534604162,64.12900769780593,10.88595440502011,0,1,0,0,0
222.08993405406363,-767.0008890926838,55.78767516091466,64.5520565059625,10.90985411951995,0,1,0,0,0
222.5486990403151,-766.012118156068,55.80560785997659,64.95761932881683,10.929600425268264,0,1,0,0,0
223.00098930334207,-765.0182746937498,55.82338971178979,65.3301401179542,10.946581065538327,0,1,0,0,0
